# E [eV]     Re(phi,n), v = c/10, b = -10 nm
# a = 10 nm, $z_p$ = $z^{opt}_p$, plot_potential.py
1.90040369189e-02	7.68933484522e-06	3.98547359530e-06
2.89002720894e-02	8.79993592996e-06	4.04453858439e-06
3.87965072599e-02	9.92680808606e-06	4.10405514739e-06
4.86927424304e-02	1.10694066721e-05	4.16386953231e-06
5.85889776009e-02	1.22286966228e-05	4.22422850386e-06
6.84852127714e-02	1.34048964084e-05	4.28514033479e-06
7.83814479419e-02	1.45981031900e-05	4.34658717517e-06
8.82776831124e-02	1.58072558796e-05	4.40833709360e-06
9.81739182829e-02	1.70337689356e-05	4.47067313227e-06
1.08070153453e-01	1.82778708217e-05	4.53360382285e-06
1.17966388624e-01	1.95397933817e-05	4.59713772830e-06
1.27862623794e-01	2.08179365899e-05	4.66114166179e-06
1.37758858965e-01	2.21141072317e-05	4.72578339155e-06
1.47655094135e-01	2.34285908300e-05	4.79107595283e-06
1.57551329306e-01	2.47616294906e-05	4.85702826508e-06
1.67447564476e-01	2.61114296390e-05	4.92334722869e-06
1.77343799647e-01	2.74797248100e-05	4.99029287081e-06
1.87240034817e-01	2.88670812942e-05	5.05792339397e-06
1.97136269988e-01	3.02737512012e-05	5.12624758043e-06
2.07032505158e-01	3.16983147611e-05	5.19519658062e-06
2.16928740329e-01	3.31419583159e-05	5.26484176106e-06
2.26824975499e-01	3.46054957562e-05	5.33522046882e-06
2.36721210670e-01	3.60891896916e-05	5.40634138649e-06
2.46617445840e-01	3.75913219547e-05	5.47812655813e-06
2.56513681011e-01	3.91127817541e-05	5.55063098612e-06
2.66409916181e-01	4.06549618408e-05	5.62391656460e-06
2.76306151352e-01	4.22181341433e-05	5.69799159609e-06
2.86202386522e-01	4.38010088607e-05	5.77263968111e-06
2.96098621693e-01	4.54037918126e-05	5.84787228734e-06
3.05994856863e-01	4.70281870747e-05	5.92390587300e-06
3.15891092034e-01	4.86744755189e-05	6.00074757080e-06
3.25787327204e-01	5.03415383264e-05	6.07840662667e-06
3.35683562375e-01	5.20287910635e-05	6.15690279834e-06
3.45579797545e-01	5.37385722310e-05	6.23624385470e-06
3.55476032716e-01	5.54711701733e-05	6.31643567296e-06
3.65372267886e-01	5.72258897407e-05	6.39743779813e-06
3.75268503057e-01	5.90013850963e-05	6.47918773694e-06
3.85164738227e-01	6.08003708855e-05	6.56180734539e-06
3.95060973398e-01	6.26231412005e-05	6.64530030897e-06
4.04957208568e-01	6.44692444655e-05	6.72963656099e-06
4.14853443739e-01	6.63359241748e-05	6.81469197663e-06
4.24749678909e-01	6.82270384636e-05	6.90063147430e-06
4.34645914080e-01	7.01428836791e-05	6.98745555080e-06
4.44542149250e-01	7.20835373401e-05	7.07515778822e-06
4.54438384421e-01	7.40454949316e-05	7.16364110003e-06
4.64334619591e-01	7.60328642196e-05	7.25301033284e-06
4.74230854762e-01	7.80459400250e-05	7.34326143722e-06
4.84127089932e-01	8.00850166699e-05	7.43438889590e-06
4.94023325103e-01	8.21462074474e-05	7.52632438506e-06
5.03919560273e-01	8.42335071884e-05	7.61912398073e-06
5.13815795444e-01	8.63474706909e-05	7.71278145535e-06
5.23712030614e-01	8.84883829340e-05	7.80728427349e-06
5.33608265785e-01	9.06524806431e-05	7.90223802643e-06
5.43504500955e-01	9.28430214239e-05	7.99791529431e-06
5.53400736126e-01	9.50611233463e-05	8.09437676642e-06
5.63296971296e-01	9.73070527969e-05	8.19159984162e-06
5.73193206467e-01	9.95775194762e-05	8.28956355074e-06
5.83089441637e-01	1.01874689766e-04	8.38824526586e-06
5.92985676808e-01	1.04200235261e-04	8.48761220526e-06
6.02881911978e-01	1.06554391192e-04	8.58762799223e-06
6.12778147149e-01	1.08934065867e-04	8.68797397580e-06
6.22674382319e-01	1.11340348539e-04	8.78868712666e-06
6.32570617490e-01	1.13775658544e-04	8.88990540379e-06
6.42466852660e-01	1.16240182122e-04	8.99157298505e-06
6.52363087831e-01	1.18731766388e-04	9.09395118642e-06
6.62259323001e-01	1.21250217423e-04	9.19702730464e-06
6.72155558172e-01	1.23798159478e-04	9.30038241184e-06
6.82051793342e-01	1.26375705496e-04	9.40393355385e-06
6.91948028513e-01	1.28980543119e-04	9.50720044583e-06
7.01844263683e-01	1.31610789570e-04	9.60977688481e-06
7.11740498854e-01	1.34270594720e-04	9.71222272357e-06
7.21636734024e-01	1.36959963084e-04	9.81441655473e-06
7.31532969195e-01	1.39677530269e-04	9.91628476567e-06
7.41429204365e-01	1.42420440591e-04	1.00178134972e-05
7.51325439536e-01	1.45192534601e-04	1.01186693633e-05
7.61221674706e-01	1.47993659591e-04	1.02186759989e-05
7.71117909877e-01	1.50822775230e-04	1.03176736161e-05
7.81014145047e-01	1.53674916086e-04	1.04156499805e-05
7.90910380218e-01	1.56555124849e-04	1.05121614335e-05
8.00806615388e-01	1.59463021622e-04	1.06069522815e-05
8.10702850559e-01	1.62398043371e-04	1.06997347342e-05
8.20599085729e-01	1.65353822646e-04	1.07898601696e-05
8.30495320900e-01	1.68335529201e-04	1.08773453118e-05
8.40391556070e-01	1.71342454136e-04	1.09618184815e-05
8.50287791241e-01	1.74373783924e-04	1.10428704421e-05
8.60184026411e-01	1.77422488055e-04	1.11197484102e-05
8.70080261582e-01	1.80492829305e-04	1.11922455172e-05
8.79976496752e-01	1.83584253614e-04	1.12598502773e-05
8.89872731923e-01	1.86695421646e-04	1.13219621827e-05
8.99768967093e-01	1.89820090903e-04	1.13783419307e-05
9.09665202264e-01	1.92959944993e-04	1.14279832518e-05
9.19561437434e-01	1.96114352817e-04	1.14699683542e-05
9.29457672605e-01	1.99281200733e-04	1.15034013299e-05
9.39353907775e-01	2.02453837646e-04	1.15266187548e-05
9.49250142946e-01	2.05631777568e-04	1.15388953843e-05
9.59146378116e-01	2.08814147059e-04	1.15393425051e-05
9.69042613287e-01	2.11997675065e-04	1.15266040692e-05
9.78938848457e-01	2.15175061398e-04	1.15000576037e-05
9.88835083628e-01	2.18343024391e-04	1.14578824591e-05
9.98731318798e-01	2.21499931203e-04	1.13975062341e-05
1.00862755397e+00	2.24640753814e-04	1.13168123211e-05
1.01852378914e+00	2.27757343303e-04	1.12131024169e-05
1.02842002431e+00	2.30842851804e-04	1.10837014980e-05
1.03831625948e+00	2.33893501024e-04	1.09260368591e-05
1.04821249465e+00	2.36901507151e-04	1.07367141257e-05
1.05810872982e+00	2.39856323477e-04	1.05122629695e-05
1.06800496499e+00	2.42746461066e-04	1.02487870410e-05
1.07790120016e+00	2.45564838048e-04	9.94057882218e-06
1.08779743533e+00	2.48299232809e-04	9.58194274574e-06
1.09769367050e+00	2.50934872943e-04	9.16649553724e-06
1.10758990567e+00	2.53453765990e-04	8.68728223163e-06
1.11748614084e+00	2.55842428860e-04	8.13514018069e-06
1.12738237601e+00	2.58081174464e-04	7.49999438507e-06
1.13727861119e+00	2.60147340346e-04	6.77021306451e-06
1.14717484636e+00	2.62013204404e-04	5.93324973074e-06
1.15707108153e+00	2.63653322996e-04	4.97195555444e-06
1.16696731670e+00	2.65034804903e-04	3.86717234178e-06
1.17686355187e+00	2.66119943549e-04	2.59605721333e-06
1.18675978704e+00	2.66864628244e-04	1.13433589677e-06
1.19665602221e+00	2.67221267031e-04	-5.53474816576e-07
1.20655225738e+00	2.67132320378e-04	-2.50757405137e-06
1.21644849255e+00	2.66530897686e-04	-4.77725713393e-06
1.22634472772e+00	2.65340063602e-04	-7.41973247246e-06
1.23624096289e+00	2.63469242172e-04	-1.05129805515e-05
1.24613719806e+00	2.60811534529e-04	-1.41535671283e-05
1.25603343323e+00	2.57241154025e-04	-1.84643993514e-05
1.26592966840e+00	2.52617724866e-04	-2.35983261377e-05
1.27582590357e+00	2.46765705394e-04	-2.97659159893e-05
1.28572213874e+00	2.39479334397e-04	-3.72464738738e-05
1.29561837391e+00	2.30522328911e-04	-4.64159897670e-05
1.30551460908e+00	2.19640651249e-04	-5.77781505880e-05
1.31541084425e+00	2.06548398977e-04	-7.20560024887e-05
1.32530707942e+00	1.90970071235e-04	-9.02858684517e-05
1.33520331460e+00	1.72742457525e-04	-1.13955355312e-04
1.34509954977e+00	1.52037460496e-04	-1.45196580626e-04
1.35499578494e+00	1.29809174028e-04	-1.87070082728e-04
1.36489202011e+00	1.08798217485e-04	-2.43695592867e-04
1.37478825528e+00	9.54066195255e-05	-3.19462001663e-04
1.38468449045e+00	1.01770746327e-04	-4.15616133483e-04
1.39458072562e+00	1.43783477889e-04	-5.22870917137e-04
1.40447696079e+00	2.28264521689e-04	-6.17226618113e-04
1.41437319596e+00	3.39241352410e-04	-6.74833721565e-04
1.42426943113e+00	4.49964258730e-04	-6.93096159714e-04
1.43416566630e+00	5.44795820043e-04	-6.85720817341e-04
1.44406190147e+00	6.21601969597e-04	-6.66589043338e-04
1.45395813664e+00	6.83726786450e-04	-6.43956785589e-04
1.46385437181e+00	7.35202281926e-04	-6.21709872555e-04
1.47375060698e+00	7.79243235932e-04	-6.01395881804e-04
1.48364684215e+00	8.18220106129e-04	-5.83439428835e-04
1.49354307732e+00	8.53737577132e-04	-5.67831594970e-04
1.50343931249e+00	8.86904579560e-04	-5.54392395152e-04
1.51333554766e+00	9.18457006779e-04	-5.42914089792e-04
1.52323178283e+00	9.49005620596e-04	-5.33135558479e-04
1.53312801801e+00	9.78958701988e-04	-5.24850245874e-04
1.54302425318e+00	1.00862272769e-03	-5.17877963321e-04
1.55292048835e+00	1.03820656340e-03	-5.12061299564e-04
1.56281672352e+00	1.06792212237e-03	-5.07270533833e-04
1.57271295869e+00	1.09792122388e-03	-5.03395276724e-04
1.58260919386e+00	1.12832890102e-03	-5.00342112194e-04
1.59250542903e+00	1.15921872304e-03	-4.98034071787e-04
1.60240166420e+00	1.19070941765e-03	-4.96400908298e-04
1.61229789937e+00	1.22289098348e-03	-4.95385305623e-04
1.62219413454e+00	1.25584015839e-03	-4.94938916617e-04
1.63209036971e+00	1.28959190623e-03	-4.95020054702e-04
1.64198660488e+00	1.32423542889e-03	-4.95592426370e-04
1.65188284005e+00	1.35985135064e-03	-4.96625899404e-04
1.66177907522e+00	1.39650530183e-03	-4.98094704934e-04
1.67167531039e+00	1.43424031501e-03	-4.99969112967e-04
1.68157154556e+00	1.47312872043e-03	-5.02231781405e-04
1.69146778073e+00	1.51325185321e-03	-5.04871285439e-04
1.70136401590e+00	1.55467839648e-03	-5.07873858914e-04
1.71126025107e+00	1.59744800453e-03	-5.11230946756e-04
1.72115648624e+00	1.64162955125e-03	-5.14932625872e-04
1.73105272142e+00	1.68733077741e-03	-5.18967353075e-04
1.74094895659e+00	1.73463112082e-03	-5.23328365730e-04
1.75084519176e+00	1.78360065597e-03	-5.28008832538e-04
1.76074142693e+00	1.83431639325e-03	-5.33003158198e-04
1.77063766210e+00	1.88689129750e-03	-5.38310003466e-04
1.78053389727e+00	1.94142210497e-03	-5.43926843052e-04
1.79043013244e+00	1.99799366764e-03	-5.49845965211e-04
1.80032636761e+00	2.05667911925e-03	-5.56054121549e-04
1.81022260278e+00	2.11764031906e-03	-5.62567209052e-04
1.82011883795e+00	2.18099825566e-03	-5.69385259173e-04
1.83001507312e+00	2.24686951912e-03	-5.76507380923e-04
1.83991130829e+00	2.31532960317e-03	-5.83927158776e-04
1.84980754346e+00	2.38659039064e-03	-5.91653742526e-04
1.85970377863e+00	2.46080606361e-03	-5.99688611678e-04
1.86960001380e+00	2.53813865448e-03	-6.08033787067e-04
1.87949624897e+00	2.61868873084e-03	-6.16702365347e-04
1.88939248414e+00	2.70271455139e-03	-6.25685501078e-04
1.89928871931e+00	2.79041579595e-03	-6.34985099004e-04
1.90918495448e+00	2.88200608604e-03	-6.44602940414e-04
1.91908118965e+00	2.97766047388e-03	-6.54511689001e-04
1.92897742483e+00	3.07766818722e-03	-6.64736423478e-04
1.93887366000e+00	3.18229670597e-03	-6.75280371518e-04
1.94876989517e+00	3.29182801070e-03	-6.86143523035e-04
1.95866613034e+00	3.40645760527e-03	-6.97312967860e-04
1.96856236551e+00	3.52658185974e-03	-7.08795128589e-04
1.97845860068e+00	3.65257662980e-03	-7.20590411895e-04
1.98835483585e+00	3.78481954151e-03	-7.32694121461e-04
