# E [eV]     Re(phi,n), v = c/10, b = -10 nm
# a = 185 nm, $z_p$ = $z^{opt}_p$, plot_potential.py
1.90040369189e-02	-2.88134074874e-06	7.73888964821e-08
2.89002720894e-02	-2.85963778554e-06	8.03401869064e-08
3.87965072599e-02	-2.83712175695e-06	8.35751095925e-08
4.86927424304e-02	-2.81373031554e-06	8.71240611650e-08
5.85889776009e-02	-2.78936224956e-06	9.10347707918e-08
6.84852127714e-02	-2.76391978850e-06	9.53566612999e-08
7.83814479419e-02	-2.73729520800e-06	1.00147538143e-07
8.82776831124e-02	-2.70939282532e-06	1.05467468817e-07
9.81739182829e-02	-2.68004546982e-06	1.11409758765e-07
1.08070153453e-01	-2.64909081157e-06	1.18076336500e-07
1.17966388624e-01	-2.61634220065e-06	1.25591773060e-07
1.27862623794e-01	-2.58163445224e-06	1.34095341102e-07
1.37758858965e-01	-2.54468004329e-06	1.43787841386e-07
1.47655094135e-01	-2.50518833366e-06	1.54908469709e-07
1.57551329306e-01	-2.46282075218e-06	1.67760877686e-07
1.67447564476e-01	-2.41724861643e-06	1.82704530235e-07
1.77343799647e-01	-2.36796555108e-06	2.00262888687e-07
1.87240034817e-01	-2.31441723664e-06	2.21109450106e-07
1.97136269988e-01	-2.25596832083e-06	2.46142981556e-07
2.07032505158e-01	-2.19196579989e-06	2.76551947523e-07
2.16928740329e-01	-2.12156851393e-06	3.14043567467e-07
2.26824975499e-01	-2.04391246116e-06	3.61026871808e-07
2.36721210670e-01	-1.95827425704e-06	4.20947068460e-07
2.46617445840e-01	-1.86453990929e-06	4.98695011714e-07
2.56513681011e-01	-1.76377523875e-06	6.01484437152e-07
2.66409916181e-01	-1.66018717055e-06	7.39554887546e-07
2.76306151352e-01	-1.56507470210e-06	9.25879851766e-07
2.86202386522e-01	-1.50313654898e-06	1.17176361505e-06
2.96098621693e-01	-1.51666357825e-06	1.47274266506e-06
3.05994856863e-01	-1.65008498956e-06	1.78463950784e-06
3.15891092034e-01	-1.90131236870e-06	2.02603361159e-06
3.25787327204e-01	-2.20107992507e-06	2.14322967115e-06
3.35683562375e-01	-2.47476949457e-06	2.15240217507e-06
3.45579797545e-01	-2.69209482169e-06	2.10024488772e-06
3.55476032716e-01	-2.85508484782e-06	2.02331802312e-06
3.65372267886e-01	-2.97583575658e-06	1.94128824035e-06
3.75268503057e-01	-3.06605864367e-06	1.86282648829e-06
3.85164738227e-01	-3.13476481920e-06	1.79091473083e-06
3.95060973398e-01	-3.18813368223e-06	1.72621733039e-06
4.04957208568e-01	-3.23040017776e-06	1.66843035792e-06
4.14853443739e-01	-3.26445638900e-06	1.61695245233e-06
4.24749678909e-01	-3.29243262259e-06	1.57092460332e-06
4.34645914080e-01	-3.31577807001e-06	1.52964573102e-06
4.44542149250e-01	-3.33553869406e-06	1.49249525521e-06
4.54438384421e-01	-3.35245472717e-06	1.45899206733e-06
4.64334619591e-01	-3.36714298136e-06	1.42859927964e-06
4.74230854762e-01	-3.38003841355e-06	1.40092558904e-06
4.84127089932e-01	-3.39147576239e-06	1.37563845138e-06
4.94023325103e-01	-3.40169498682e-06	1.35249910347e-06
5.03919560273e-01	-3.41092494296e-06	1.33121828176e-06
5.13815795444e-01	-3.41933039304e-06	1.31158691239e-06
5.23712030614e-01	-3.42704286527e-06	1.29342783435e-06
5.33608265785e-01	-3.43415796343e-06	1.27661898960e-06
5.43504500955e-01	-3.44077370120e-06	1.26099913325e-06
5.53400736126e-01	-3.44696482994e-06	1.24644617484e-06
5.63296971296e-01	-3.45279146984e-06	1.23285949941e-06
5.73193206467e-01	-3.45829480690e-06	1.22016955467e-06
5.83089441637e-01	-3.46352372859e-06	1.20828489242e-06
5.92985676808e-01	-3.46851817462e-06	1.19712875714e-06
6.02881911978e-01	-3.47330888710e-06	1.18664026285e-06
6.12778147149e-01	-3.47791648583e-06	1.17677882630e-06
6.22674382319e-01	-3.48236593249e-06	1.16748985787e-06
6.32570617490e-01	-3.48668097391e-06	1.15872034371e-06
6.42466852660e-01	-3.49087878735e-06	1.15043144656e-06
6.52363087831e-01	-3.49496937217e-06	1.14259455722e-06
6.62259323001e-01	-3.49896582492e-06	1.13517765179e-06
6.72155558172e-01	-3.50288540120e-06	1.12814483412e-06
6.82051793342e-01	-3.50673840317e-06	1.12147018377e-06
6.91948028513e-01	-3.51053118975e-06	1.11513628051e-06
7.01844263683e-01	-3.51426981720e-06	1.10912526157e-06
7.11740498854e-01	-3.51796649907e-06	1.10340635679e-06
7.21636734024e-01	-3.52162782790e-06	1.09796166509e-06
7.31532969195e-01	-3.52525777203e-06	1.09277710649e-06
7.41429204365e-01	-3.52885778064e-06	1.08784177539e-06
7.51325439536e-01	-3.53243874587e-06	1.08313445817e-06
7.61221674706e-01	-3.53600512602e-06	1.07864239224e-06
7.71117909877e-01	-3.53955985449e-06	1.07435495533e-06
7.81014145047e-01	-3.54310036406e-06	1.07026721995e-06
7.90910380218e-01	-3.54663755897e-06	1.06636122463e-06
8.00806615388e-01	-3.55017461911e-06	1.06262764467e-06
8.10702850559e-01	-3.55371436445e-06	1.05905795589e-06
8.20599085729e-01	-3.55725268568e-06	1.05565092009e-06
8.30495320900e-01	-3.56079901636e-06	1.05239154457e-06
8.40391556070e-01	-3.56435575201e-06	1.04927286980e-06
8.50287791241e-01	-3.56792514517e-06	1.04628840074e-06
8.60184026411e-01	-3.57150223264e-06	1.04343789005e-06
8.70080261582e-01	-3.57509522116e-06	1.04070998971e-06
8.79976496752e-01	-3.57870674689e-06	1.03809878028e-06
8.89872731923e-01	-3.58233861954e-06	1.03559930968e-06
8.99768967093e-01	-3.58598661211e-06	1.03320991634e-06
9.09665202264e-01	-3.58965664767e-06	1.03092371994e-06
9.19561437434e-01	-3.59335189453e-06	1.02873580341e-06
9.29457672605e-01	-3.59707388018e-06	1.02664233369e-06
9.39353907775e-01	-3.60081936068e-06	1.02464315686e-06
9.49250142946e-01	-3.60459202606e-06	1.02273284095e-06
9.59146378116e-01	-3.60839551162e-06	1.02090648488e-06
9.69042613287e-01	-3.61223117240e-06	1.01916108910e-06
9.78938848457e-01	-3.61609537929e-06	1.01749468447e-06
9.88835083628e-01	-3.61999038972e-06	1.01590415377e-06
9.98731318798e-01	-3.62392134776e-06	1.01438623331e-06
1.00862755397e+00	-3.62788950285e-06	1.01293855198e-06
1.01852378914e+00	-3.63189297961e-06	1.01156052041e-06
1.02842002431e+00	-3.63593206579e-06	1.01025028544e-06
1.03831625948e+00	-3.64001179397e-06	1.00900373133e-06
1.04821249465e+00	-3.64413336472e-06	1.00781897134e-06
1.05810872982e+00	-3.64829522287e-06	1.00669460017e-06
1.06800496499e+00	-3.65249560512e-06	1.00562915781e-06
1.07790120016e+00	-3.65674122972e-06	1.00462019459e-06
1.08779743533e+00	-3.66103328402e-06	1.00366620138e-06
1.09769367050e+00	-3.66537123830e-06	1.00276612888e-06
1.10758990567e+00	-3.66975152699e-06	1.00191953255e-06
1.11748614084e+00	-3.67418161988e-06	1.00112365690e-06
1.12738237601e+00	-3.67866272284e-06	1.00037729288e-06
1.13727861119e+00	-3.68319528121e-06	9.99679423330e-07
1.14717484636e+00	-3.68777417318e-06	9.99029911957e-07
1.15707108153e+00	-3.69240755081e-06	9.98426499921e-07
1.16696731670e+00	-3.69709666434e-06	9.97868219543e-07
1.17686355187e+00	-3.70184277992e-06	9.97354155194e-07
1.18675978704e+00	-3.70663773295e-06	9.96883131365e-07
1.19665602221e+00	-3.71149188856e-06	9.96454433056e-07
1.20655225738e+00	-3.71640672000e-06	9.96067293248e-07
1.21644849255e+00	-3.72138356484e-06	9.95720984376e-07
1.22634472772e+00	-3.72641759846e-06	9.95416503012e-07
1.23624096289e+00	-3.73151525356e-06	9.95151703102e-07
1.24613719806e+00	-3.73667885753e-06	9.94925718861e-07
1.25603343323e+00	-3.74190984347e-06	9.94737980191e-07
1.26592966840e+00	-3.74720252113e-06	9.94587083516e-07
1.27582590357e+00	-3.75256300720e-06	9.94472960388e-07
1.28572213874e+00	-3.75799511177e-06	9.94395402722e-07
1.29561837391e+00	-3.76350038346e-06	9.94353972835e-07
1.30551460908e+00	-3.76907400067e-06	9.94348315264e-07
1.31541084425e+00	-3.77472016139e-06	9.94377922002e-07
1.32530707942e+00	-3.78044406844e-06	9.94442390526e-07
1.33520331460e+00	-3.78624740936e-06	9.94541398105e-07
1.34509954977e+00	-3.79212737010e-06	9.94674579708e-07
1.35499578494e+00	-3.79808595946e-06	9.94841592429e-07
1.36489202011e+00	-3.80412905189e-06	9.95042228052e-07
1.37478825528e+00	-3.81025850026e-06	9.95276264628e-07
1.38468449045e+00	-3.81647231004e-06	9.95543358683e-07
1.39458072562e+00	-3.82277053526e-06	9.95843197712e-07
1.40447696079e+00	-3.82916069892e-06	9.96175806311e-07
1.41437319596e+00	-3.83564484744e-06	9.96541053000e-07
1.42426943113e+00	-3.84222213785e-06	9.96938105173e-07
1.43416566630e+00	-3.84889047134e-06	9.97365770486e-07
1.44406190147e+00	-3.85565900152e-06	9.97825650245e-07
1.45395813664e+00	-3.86253000080e-06	9.98317694569e-07
1.46385437181e+00	-3.86950423647e-06	9.98841760400e-07
1.47375060698e+00	-3.87657837938e-06	9.99397386447e-07
1.48364684215e+00	-3.88376195408e-06	9.99985062199e-07
1.49354307732e+00	-3.89105749820e-06	1.00060481518e-06
1.50343931249e+00	-3.89846674405e-06	1.00125675173e-06
1.51333554766e+00	-3.90598023278e-06	1.00194171966e-06
1.52323178283e+00	-3.91361335623e-06	1.00265889952e-06
1.53312801801e+00	-3.92136895867e-06	1.00340839454e-06
1.54302425318e+00	-3.92924997149e-06	1.00419032612e-06
1.55292048835e+00	-3.93725262532e-06	1.00500199385e-06
1.56281672352e+00	-3.94538627129e-06	1.00584611926e-06
1.57271295869e+00	-3.95365448123e-06	1.00672302739e-06
1.58260919386e+00	-3.96206056586e-06	1.00763291051e-06
1.59250542903e+00	-3.97059873354e-06	1.00857494993e-06
1.60240166420e+00	-3.97927961241e-06	1.00955012060e-06
1.61229789937e+00	-3.98810862515e-06	1.01055886490e-06
1.62219413454e+00	-3.99708952628e-06	1.01160144768e-06
1.63209036971e+00	-4.00621618049e-06	1.01267694345e-06
1.64198660488e+00	-4.01549836600e-06	1.01378630243e-06
1.65188284005e+00	-4.02494405494e-06	1.01493030019e-06
1.66177907522e+00	-4.03455752351e-06	1.01610927571e-06
1.67167531039e+00	-4.04433749460e-06	1.01732118679e-06
1.68157154556e+00	-4.05429030830e-06	1.01856712223e-06
1.69146778073e+00	-4.06442436442e-06	1.01984901287e-06
1.70136401590e+00	-4.07474456301e-06	1.02116727236e-06
1.71126025107e+00	-4.08524827873e-06	1.02252273470e-06
1.72115648624e+00	-4.09594003784e-06	1.02391585790e-06
1.73105272142e+00	-4.10683322699e-06	1.02534669278e-06
1.74094895659e+00	-4.11793348633e-06	1.02681573559e-06
1.75084519176e+00	-4.12924364435e-06	1.02832308990e-06
1.76074142693e+00	-4.14076758260e-06	1.02986897768e-06
1.77063766210e+00	-4.15251655243e-06	1.03145463881e-06
1.78053389727e+00	-4.16449709206e-06	1.03308065411e-06
1.79043013244e+00	-4.17671229753e-06	1.03474622524e-06
1.80032636761e+00	-4.18916210332e-06	1.03644924873e-06
1.81022260278e+00	-4.20186419432e-06	1.03819430994e-06
1.82011883795e+00	-4.21482619109e-06	1.03998207331e-06
1.83001507312e+00	-4.22805363629e-06	1.04181289031e-06
1.83991130829e+00	-4.24154297348e-06	1.04368568483e-06
1.84980754346e+00	-4.25531640931e-06	1.04560323788e-06
1.85970377863e+00	-4.26938286791e-06	1.04756631431e-06
1.86960001380e+00	-4.28375121592e-06	1.04957575775e-06
1.87949624897e+00	-4.29841752938e-06	1.05163398821e-06
1.88939248414e+00	-4.31340546929e-06	1.05374023925e-06
1.89928871931e+00	-4.32872556568e-06	1.05589538552e-06
1.90918495448e+00	-4.34438881109e-06	1.05810032870e-06
1.91908118965e+00	-4.36039791187e-06	1.06035084439e-06
1.92897742483e+00	-4.37677249564e-06	1.06265236109e-06
1.93887366000e+00	-4.39352590387e-06	1.06500633403e-06
1.94876989517e+00	-4.41067123973e-06	1.06741376876e-06
1.95866613034e+00	-4.42820591096e-06	1.06987314162e-06
1.96856236551e+00	-4.44615587695e-06	1.07238725112e-06
1.97845860068e+00	-4.46454000316e-06	1.07495800417e-06
1.98835483585e+00	-4.48337418532e-06	1.07758631805e-06
