# E [eV]     Re(phi,n), v = c/10, b = -10 nm
# a = 185 nm, $z_p$ = $z^{opt}_p$, plot_potential.py
1.90040369189e-02	-2.76013718078e-06	1.63128080395e-07
2.89002720894e-02	-2.71583609650e-06	1.75566270364e-07
3.87965072599e-02	-2.66848104691e-06	1.90362526702e-07
4.86927424304e-02	-2.61762334321e-06	2.08098013639e-07
5.85889776009e-02	-2.56267849658e-06	2.29599783158e-07
6.84852127714e-02	-2.50301455928e-06	2.55980592987e-07
7.83814479419e-02	-2.43794789290e-06	2.88790993523e-07
8.82776831124e-02	-2.36686594197e-06	3.30179195200e-07
9.81739182829e-02	-2.28919771466e-06	3.83360420679e-07
1.08070153453e-01	-2.20499435225e-06	4.52951320713e-07
1.17966388624e-01	-2.11577889461e-06	5.45616253095e-07
1.27862623794e-01	-2.02663771633e-06	6.70329182150e-07
1.37758858965e-01	-1.94966795747e-06	8.37984563612e-07
1.47655094135e-01	-1.90974036573e-06	1.05541582860e-06
1.57551329306e-01	-1.94465493549e-06	1.31003781938e-06
1.67447564476e-01	-2.08205064369e-06	1.55240204969e-06
1.77343799647e-01	-2.29977019751e-06	1.71796688916e-06
1.87240034817e-01	-2.53387022418e-06	1.78320423814e-06
1.97136269988e-01	-2.73536533418e-06	1.77433667841e-06
2.07032505158e-01	-2.89082759282e-06	1.72793924096e-06
2.16928740329e-01	-3.00636553134e-06	1.66824632289e-06
2.26824975499e-01	-3.09202999038e-06	1.60723495246e-06
2.36721210670e-01	-3.15636398010e-06	1.54988551324e-06
2.46617445840e-01	-3.20553107689e-06	1.49790281378e-06
2.56513681011e-01	-3.24389379376e-06	1.45144103153e-06
2.66409916181e-01	-3.27444185769e-06	1.41008875981e-06
2.76306151352e-01	-3.29921605889e-06	1.37329565612e-06
2.86202386522e-01	-3.31963416720e-06	1.34052474281e-06
2.96098621693e-01	-3.33672714328e-06	1.31123975115e-06
3.05994856863e-01	-3.35125292924e-06	1.28494630891e-06
3.15891092034e-01	-3.36375872677e-06	1.26124802957e-06
3.25787327204e-01	-3.37464582646e-06	1.23982392943e-06
3.35683562375e-01	-3.38422520566e-06	1.22039155633e-06
3.45579797545e-01	-3.39275284532e-06	1.20268133698e-06
3.55476032716e-01	-3.40041652046e-06	1.18648727738e-06
3.65372267886e-01	-3.40736097016e-06	1.17164166713e-06
3.75268503057e-01	-3.41370020012e-06	1.15800395757e-06
3.85164738227e-01	-3.41953968463e-06	1.14542364873e-06
3.95060973398e-01	-3.42495704596e-06	1.13378955380e-06
4.04957208568e-01	-3.43001402872e-06	1.12300949365e-06
4.14853443739e-01	-3.43475616407e-06	1.11301430501e-06
4.24749678909e-01	-3.43923746366e-06	1.10370909519e-06
4.34645914080e-01	-3.44349465245e-06	1.09502983768e-06
4.44542149250e-01	-3.44755828583e-06	1.08692102511e-06
4.54438384421e-01	-3.45144708201e-06	1.07934671808e-06
4.64334619591e-01	-3.45519206979e-06	1.07224632276e-06
4.74230854762e-01	-3.45881252092e-06	1.06558068068e-06
4.84127089932e-01	-3.46232507981e-06	1.05931484058e-06
4.94023325103e-01	-3.46573696250e-06	1.05342893437e-06
5.03919560273e-01	-3.46906769355e-06	1.04788306639e-06
5.13815795444e-01	-3.47232872907e-06	1.04265127567e-06
5.23712030614e-01	-3.47552972242e-06	1.03771084298e-06
5.33608265785e-01	-3.47867372550e-06	1.03305005178e-06
5.43504500955e-01	-3.48177258540e-06	1.02864246832e-06
5.53400736126e-01	-3.48483417360e-06	1.02446925540e-06
5.63296971296e-01	-3.48786447594e-06	1.02051505896e-06
5.73193206467e-01	-3.49086389843e-06	1.01677139133e-06
5.83089441637e-01	-3.49384018759e-06	1.01322158586e-06
5.92985676808e-01	-3.49679972264e-06	1.00985158111e-06
6.02881911978e-01	-3.49974643809e-06	1.00665065319e-06
6.12778147149e-01	-3.50267995706e-06	1.00361328702e-06
6.22674382319e-01	-3.50560470649e-06	1.00072855808e-06
6.32570617490e-01	-3.50852634180e-06	9.97985046648e-07
6.42466852660e-01	-3.51144759897e-06	9.95375059434e-07
6.52363087831e-01	-3.51436786105e-06	9.92893251274e-07
6.62259323001e-01	-3.51728914808e-06	9.90532887288e-07
6.72155558172e-01	-3.52021703459e-06	9.88285832993e-07
6.82051793342e-01	-3.52315352522e-06	9.86146434975e-07
6.91948028513e-01	-3.52609796220e-06	9.84111634641e-07
7.01844263683e-01	-3.52905007067e-06	9.82177892964e-07
7.11740498854e-01	-3.53201584192e-06	9.80336709490e-07
7.21636734024e-01	-3.53499682861e-06	9.78583856606e-07
7.31532969195e-01	-3.53799295073e-06	9.76916072862e-07
7.41429204365e-01	-3.54100241885e-06	9.75330861825e-07
7.51325439536e-01	-3.54403117469e-06	9.73822610665e-07
7.61221674706e-01	-3.54708048328e-06	9.72388101428e-07
7.71117909877e-01	-3.55015061016e-06	9.71024648646e-07
7.81014145047e-01	-3.55323743134e-06	9.69731073015e-07
7.90910380218e-01	-3.55634815183e-06	9.68502463918e-07
8.00806615388e-01	-3.55948385431e-06	9.67336340105e-07
8.10702850559e-01	-3.56264546936e-06	9.66230414759e-07
8.20599085729e-01	-3.56582771358e-06	9.65184717360e-07
8.30495320900e-01	-3.56903782901e-06	9.64194707859e-07
8.40391556070e-01	-3.57227678708e-06	9.63258451840e-07
8.50287791241e-01	-3.57554554057e-06	9.62374127085e-07
8.60184026411e-01	-3.57883839310e-06	9.61541838743e-07
8.70080261582e-01	-3.58216201049e-06	9.60758145432e-07
8.79976496752e-01	-3.58551798579e-06	9.60021325967e-07
8.89872731923e-01	-3.58890721689e-06	9.59329945687e-07
8.99768967093e-01	-3.59232525623e-06	9.58683064587e-07
9.09665202264e-01	-3.59577675040e-06	9.58078940285e-07
9.19561437434e-01	-3.59926398835e-06	9.57516239282e-07
9.29457672605e-01	-3.60278784445e-06	9.56993824827e-07
9.39353907775e-01	-3.60634441615e-06	9.56512003616e-07
9.49250142946e-01	-3.60993686038e-06	9.56068944629e-07
9.59146378116e-01	-3.61356832146e-06	9.55663005884e-07
9.69042613287e-01	-3.61723967495e-06	9.55293285488e-07
9.78938848457e-01	-3.62094737872e-06	9.54958307685e-07
9.88835083628e-01	-3.62469311707e-06	9.54657248648e-07
9.98731318798e-01	-3.62848122001e-06	9.54389797993e-07
1.00862755397e+00	-3.63231258177e-06	9.54155239390e-07
1.01852378914e+00	-3.63618494529e-06	9.53953580219e-07
1.02842002431e+00	-3.64009827782e-06	9.53784290212e-07
1.03831625948e+00	-3.64405738693e-06	9.53645891146e-07
1.04821249465e+00	-3.64806320339e-06	9.53537817873e-07
1.05810872982e+00	-3.65211406984e-06	9.53459267735e-07
1.06800496499e+00	-3.65620812374e-06	9.53409364961e-07
1.07790120016e+00	-3.66035154847e-06	9.53388139771e-07
1.08779743533e+00	-3.66454532498e-06	9.53395150209e-07
1.09769367050e+00	-3.66878876060e-06	9.53429994032e-07
1.10758990567e+00	-3.67307818486e-06	9.53492253714e-07
1.11748614084e+00	-3.67742077876e-06	9.53581479035e-07
1.12738237601e+00	-3.68181758763e-06	9.53697331255e-07
1.13727861119e+00	-3.68626891721e-06	9.53839480938e-07
1.14717484636e+00	-3.69076959256e-06	9.54007474398e-07
1.15707108153e+00	-3.69532752325e-06	9.54201122010e-07
1.16696731670e+00	-3.69994383319e-06	9.54420172542e-07
1.17686355187e+00	-3.70461966924e-06	9.54664394428e-07
1.18675978704e+00	-3.70934706775e-06	9.54931860753e-07
1.19665602221e+00	-3.71413596265e-06	9.55223927060e-07
1.20655225738e+00	-3.71898772182e-06	9.55540444842e-07
1.21644849255e+00	-3.72390358820e-06	9.55881255080e-07
1.22634472772e+00	-3.72887854690e-06	9.56247057291e-07
1.23624096289e+00	-3.73391903495e-06	9.56636981058e-07
1.24613719806e+00	-3.73902731458e-06	9.57050787987e-07
1.25603343323e+00	-3.74420474235e-06	9.57488384539e-07
1.26592966840e+00	-3.74944574589e-06	9.57948019376e-07
1.27582590357e+00	-3.75475623367e-06	9.58430646254e-07
1.28572213874e+00	-3.76013988743e-06	9.58936742813e-07
1.29561837391e+00	-3.76559819395e-06	9.59466273243e-07
1.30551460908e+00	-3.77112631959e-06	9.60018630787e-07
1.31541084425e+00	-3.77672838270e-06	9.60593991697e-07
1.32530707942e+00	-3.78240950601e-06	9.61192674285e-07
1.33520331460e+00	-3.78817132651e-06	9.61814696761e-07
1.34509954977e+00	-3.79401100965e-06	9.62459628747e-07
1.35499578494e+00	-3.79993051362e-06	9.63127502901e-07
1.36489202011e+00	-3.80593564341e-06	9.63818777957e-07
1.37478825528e+00	-3.81202821020e-06	9.64533523114e-07
1.38468449045e+00	-3.81820620018e-06	9.65271381502e-07
1.39458072562e+00	-3.82446963658e-06	9.66032202300e-07
1.40447696079e+00	-3.83082597596e-06	9.66816701028e-07
1.41437319596e+00	-3.83727723014e-06	9.67624996104e-07
1.42426943113e+00	-3.84382257310e-06	9.68456302624e-07
1.43416566630e+00	-3.85045993921e-06	9.69309409255e-07
1.44406190147e+00	-3.85719832995e-06	9.70186611771e-07
1.45395813664e+00	-3.86403998898e-06	9.71088075849e-07
1.46385437181e+00	-3.87098566219e-06	9.72013776395e-07
1.47375060698e+00	-3.87803201481e-06	9.72963143738e-07
1.48364684215e+00	-3.88518851772e-06	9.73937280287e-07
1.49354307732e+00	-3.89245768438e-06	9.74936400463e-07
1.50343931249e+00	-3.89984122008e-06	9.75960747225e-07
1.51333554766e+00	-3.90732959257e-06	9.77010759983e-07
1.52323178283e+00	-3.91493822936e-06	9.78086441341e-07
1.53312801801e+00	-3.92266995418e-06	9.79188056962e-07
1.54302425318e+00	-3.93052767868e-06	9.80315885422e-07
1.55292048835e+00	-3.93850772460e-06	9.81467087201e-07
1.56281672352e+00	-3.94661931628e-06	9.82644817898e-07
1.57271295869e+00	-3.95486600210e-06	9.83849560761e-07
1.58260919386e+00	-3.96325107608e-06	9.85081645707e-07
1.59250542903e+00	-3.97176875307e-06	9.86340045969e-07
1.60240166420e+00	-3.98042962656e-06	9.87626154045e-07
1.61229789937e+00	-3.98923909985e-06	9.88940605511e-07
1.62219413454e+00	-3.99820091316e-06	9.90283786008e-07
1.63209036971e+00	-4.00730893876e-06	9.91654562703e-07
1.64198660488e+00	-4.01657292751e-06	9.93054212320e-07
1.65188284005e+00	-4.02600083029e-06	9.94483748556e-07
1.66177907522e+00	-4.03559691101e-06	9.95943616651e-07
1.67167531039e+00	-4.04535993813e-06	9.97431713237e-07
1.68157154556e+00	-4.05529621745e-06	9.98949292398e-07
1.69146778073e+00	-4.06541409961e-06	1.00049849096e-06
1.70136401590e+00	-4.07571847411e-06	1.00207981647e-06
1.71126025107e+00	-4.08620668268e-06	1.00369400627e-06
1.72115648624e+00	-4.09688324193e-06	1.00534160863e-06
1.73105272142e+00	-4.10776155320e-06	1.00702296043e-06
1.74094895659e+00	-4.11884724740e-06	1.00873864096e-06
1.75084519176e+00	-4.13014314817e-06	1.01048876940e-06
1.76074142693e+00	-4.14165313085e-06	1.01227360705e-06
1.77063766210e+00	-4.15338843148e-06	1.01409458026e-06
1.78053389727e+00	-4.16535558015e-06	1.01595234358e-06
1.79043013244e+00	-4.17755768575e-06	1.01784609982e-06
1.80032636761e+00	-4.18999471161e-06	1.01977369097e-06
1.81022260278e+00	-4.20268427520e-06	1.02173997474e-06
1.82011883795e+00	-4.21563399000e-06	1.02374568105e-06
1.83001507312e+00	-4.22884939441e-06	1.02579118647e-06
1.83991130829e+00	-4.24232693754e-06	1.02787529480e-06
1.84980754346e+00	-4.25608880418e-06	1.03000107748e-06
1.85970377863e+00	-4.27014391220e-06	1.03216935752e-06
1.86960001380e+00	-4.28450112094e-06	1.03438102914e-06
1.87949624897e+00	-4.29915646357e-06	1.03663838639e-06
1.88939248414e+00	-4.31413363505e-06	1.03894091046e-06
1.89928871931e+00	-4.32944315979e-06	1.04128952771e-06
1.90918495448e+00	-4.34509602482e-06	1.04368519007e-06
1.91908118965e+00	-4.36109498234e-06	1.04612361468e-06
1.92897742483e+00	-4.37745960632e-06	1.04861037905e-06
1.93887366000e+00	-4.39420322825e-06	1.05114699469e-06
1.94876989517e+00	-4.41133894635e-06	1.05373451182e-06
1.95866613034e+00	-4.42886417508e-06	1.05637128432e-06
1.96856236551e+00	-4.44680486003e-06	1.05906028429e-06
1.97845860068e+00	-4.46517985916e-06	1.06180350178e-06
1.98835483585e+00	-4.48400506359e-06	1.06460189359e-06
